function [solventBackground] = loadMoarRookle07SolventBackgroundRamanData();

solventBackground = [
1682.56	4.86668
1681.63	4.81907
1680.69	4.77165
1679.75	4.85578
1678.82	4.79253
1677.88	4.82057
1676.94	5.05997
1676.01	4.59379
1675.07	4.91128
1674.13	4.79031
1673.19	4.88146
1672.26	5.01852
1671.32	4.8142
1670.38	4.93369
1669.44	5.07505
1668.5	4.97773
1667.56	4.87942
1666.63	4.79165
1665.69	5.1937
1664.75	4.83199
1663.81	4.85309
1662.87	4.97486
1661.93	4.99081
1660.99	5.01724
1660.05	4.91559
1659.11	5.12565
1658.18	4.9963
1657.24	4.967
1656.3	4.78765
1655.36	4.98842
1654.42	5.01763
1653.48	4.84296
1652.54	5.0107
1651.6	5.06398
1650.66	4.96909
1649.72	5.04546
1648.78	4.88563
1647.83	4.88308
1646.89	5.22428
1645.95	4.96352
1645.01	4.8715
1644.07	5.26376
1643.13	4.90545
1642.19	5.02336
1641.25	5.07216
1640.31	5.17808
1639.37	5.13568
1638.42	5.01031
1637.48	4.92524
1636.54	5.26636
1635.6	4.85599
1634.66	5.1345
1633.72	4.8949
1632.77	5.14523
1631.83	5.0954
1630.89	5.00333
1629.95	4.96225
1629	4.93287
1628.06	5.00488
1627.12	4.89656
1626.17	4.9606
1625.23	5.13282
1624.29	5.34439
1623.34	5.10028
1622.4	5.07576
1621.45	5.14406
1620.51	5.25563
1619.57	5.11016
1618.62	5.06566
1617.68	5.24791
1616.74	5.21806
1615.79	5.14902
1614.85	4.97954
1613.9	5.03272
1612.96	5.29178
1612.01	5.02448
1611.07	5.19388
1610.12	4.94797
1609.18	5.12219
1608.23	5.17759
1607.29	5.11143
1606.34	5.03353
1605.4	5.14387
1604.45	5.1834
1603.51	5.09289
1602.56	5.12972
1601.61	5.10577
1600.67	5.08394
1599.72	5.13244
1598.78	5.39281
1597.83	5.02615
1596.88	5.23568
1595.94	5.27006
1594.99	5.07531
1594.04	5.19499
1593.1	5.24873
1592.15	5.16739
1591.2	5.17
1590.25	5.27478
1589.31	5.44333
1588.36	5.18217
1587.41	5.24516
1586.47	5.31622
1585.52	4.85006
1584.57	5.43295
1583.62	5.37037
1582.67	5.00269
1581.73	5.40707
1580.78	4.95088
1579.83	5.26899
1578.88	5.12281
1577.93	5.33708
1576.98	5.09047
1576.03	5.18748
1575.08	5.24464
1574.13	5.04993
1573.19	5.27119
1572.24	5.1922
1571.29	5.23652
1570.34	5.25513
1569.39	5.30414
1568.44	5.29894
1567.49	5.25693
1566.54	5.27421
1565.59	5.10687
1564.64	5.28274
1563.69	5.17921
1562.74	5.48236
1561.78	5.06975
1560.84	5.31711
1559.88	5.16068
1558.93	5.25285
1557.98	5.21893
1557.03	5.15003
1556.08	5.33682
1555.13	5.49136
1554.18	5.49314
1553.23	5.36011
1552.27	5.27079
1551.32	5.20425
1550.37	5.16054
1549.42	5.14243
1548.47	5.16815
1547.51	5.41237
1546.56	5.22308
1545.61	5.11824
1544.66	5.29653
1543.7	5.43554
1542.75	5.16054
1541.8	5.18765
1540.84	5.34884
1539.89	5.21411
1538.94	5.44667
1537.99	5.31077
1537.03	5.50665
1536.08	5.46961
1535.12	5.51785
1534.17	5.29417
1533.22	5.35687
1532.26	5.3997
1531.31	5.46537
1530.35	5.38024
1529.4	5.33857
1528.45	5.33956
1527.49	5.16761
1526.54	5.26856
1525.58	5.52362
1524.63	5.35574
1523.67	5.33824
1522.72	5.49197
1521.76	5.44691
1520.81	5.42473
1519.85	5.56027
1518.9	5.58891
1517.94	5.48574
1516.98	5.42859
1516.03	5.45377
1515.07	5.33648
1514.12	5.44376
1513.16	5.30955
1512.2	5.42244
1511.25	5.49468
1510.29	5.34372
1509.33	5.57037
1508.38	5.64274
1507.42	5.51628
1506.46	5.74909
1505.51	5.35747
1504.55	5.29458
1503.59	5.73843
1502.63	5.55384
1501.68	5.59252
1500.72	5.3856
1499.76	5.67064
1498.8	5.69248
1497.84	5.65387
1496.88	5.79634
1495.93	5.58335
1494.97	5.47808
1494.01	5.41262
1493.05	5.50232
1492.09	5.58932
1491.13	5.40766
1490.17	5.58588
1489.22	5.52206
1488.26	5.71154
1487.3	5.3994
1486.34	5.5958
1485.38	5.57583
1484.42	5.74571
1483.46	5.67963
1482.5	5.81344
1481.54	5.76522
1480.58	5.67683
1479.62	5.59852
1478.66	5.45188
1477.7	5.65867
1476.74	5.79851
1475.78	5.69202
1474.82	5.78668
1473.86	5.75908
1472.89	5.55004
1471.93	5.62077
1470.97	5.67165
1470.01	5.40881
1469.05	5.74794
1468.09	5.76266
1467.13	5.69159
1466.16	5.80228
1465.2	5.59599
1464.24	5.57043
1463.28	5.70329
1462.32	5.77765
1461.35	5.69056
1460.39	5.66568
1459.43	5.71077
1458.47	5.77498
1457.5	5.68467
1456.54	5.91722
1455.58	5.8362
1454.61	5.92587
1453.65	5.86022
1452.69	5.95938
1451.72	5.7888
1450.76	5.7025
1449.8	5.68224
1448.83	5.67636
1447.87	5.76049
1446.91	5.86914
1445.94	5.86575
1444.98	5.69626
1444.01	5.82096
1443.05	5.77738
1442.08	5.93384
1441.12	5.65887
1440.15	5.78735
1439.19	5.6511
1438.23	5.87453
1437.26	5.9164
1436.29	5.8682
1435.33	5.69023
1434.36	5.75953
1433.4	5.94251
1432.43	5.76699
1431.47	5.81399
1430.5	5.63613
1429.53	5.91967
1428.57	5.77808
1427.6	5.66858
1426.63	5.80521
1425.67	5.95717
1424.7	5.97226
1423.74	5.8859
1422.77	5.77885
1421.8	5.88478
1420.83	5.65051
1419.87	6.02492
1418.9	5.88213
1417.93	5.75627
1416.96	5.88064
1416	5.88251
1415.03	5.92775
1414.06	5.72896
1413.09	5.9594
1412.13	5.83299
1411.16	5.79746
1410.19	5.99901
1409.22	5.69892
1408.25	5.93575
1407.28	5.81429
1406.31	5.97317
1405.35	5.95401
1404.38	5.71601
1403.41	6.10829
1402.44	5.81435
1401.47	5.88164
1400.5	5.76566
1399.53	5.8059
1398.56	5.81717
1397.59	5.60962
1396.62	5.85001
1395.65	5.95118
1394.68	5.94833
1393.71	6.10328
1392.74	5.9631
1391.77	5.80574
1390.8	5.75358
1389.83	5.69832
1388.86	5.83923
1387.89	5.81564
1386.91	5.75375
1385.94	5.64877
1384.97	5.95517
1384	6.11157
1383.03	5.77234
1382.06	6.03431
1381.09	5.9298
1380.11	5.87572
1379.14	6.12883
1378.17	6.04359
1377.2	6.27751
1376.22	6.03556
1375.25	5.9522
1374.28	6.18042
1373.31	6.07325
1372.34	5.9067
1371.36	6.2372
1370.39	5.88379
1369.41	6.1116
1368.44	6.00593
1367.47	6.26672
1366.5	5.96865
1365.52	5.73573
1364.55	6.21197
1363.57	6.16582
1362.6	5.8392
1361.63	6.01046
1360.65	5.94793
1359.68	6.04889
1358.7	5.91493
1357.73	6.00631
1356.75	6.21629
1355.78	5.9721
1354.8	5.90547
1353.83	5.792
1352.85	6.08854
1351.88	6.27094
1350.9	5.93774
1349.93	6.04049
1348.95	6.05656
1347.98	6.29594
1347	6.04688
1346.03	5.86944
1345.05	6.19728
1344.07	6.06869
1343.1	6.21172
1342.12	5.98715
1341.14	5.88867
1340.17	6.13084
1339.19	5.86365
1338.21	6.09698
1337.24	5.85383
1336.26	6.27753
1335.28	6.02516
1334.31	6.20991
1333.33	5.98353
1332.35	6.12057
1331.37	6.11989
1330.39	5.95827
1329.42	5.99297
1328.44	5.89196
1327.46	6.18094
1326.48	6.27588
1325.51	6.29932
1324.53	6.09281
1323.55	6.14146
1322.57	6.20999
1321.59	6.3704
1320.61	6.22801
1319.63	6.22947
1318.65	6.29907
1317.67	6.1765
1316.69	6.3572
1315.72	6.305
1314.74	5.97318
1313.76	6.10623
1312.78	6.22436
1311.8	6.22818
1310.82	6.40347
1309.84	6.37123
1308.86	6.40685
1307.87	6.29766
1306.89	6.2758
1305.91	6.09446
1304.93	6.28458
1303.95	6.10214
1302.97	6.15475
1301.99	6.23126
1301.01	6.43616
1300.03	6.29227
1299.05	6.19964
1298.07	6.221
1297.08	6.31373
1296.1	6.21887
1295.12	6.19864
1294.14	6.27313
1293.16	6.48431
1292.17	6.10744
1291.19	6.124
1290.21	6.28011
1289.22	6.49023
1288.24	6.16323
1287.26	6.29019
1286.28	6.32243
1285.29	6.29078
1284.31	6.32951
1283.33	6.3212
1282.34	6.61925
1281.36	6.34031
1280.38	6.31534
1279.39	6.38849
1278.41	6.41505
1277.42	6.14607
1276.44	6.298
1275.46	6.10058
1274.47	6.30168
1273.49	6.32469
1272.5	6.36925
1271.52	6.32014
1270.53	6.45778
1269.55	6.30971
1268.56	6.2332
1267.58	6.47307
1266.59	6.45576
1265.61	6.52821
1264.62	6.38865
1263.64	6.44617
1262.65	6.45736
1261.67	6.19422
1260.68	6.3281
1259.69	6.42465
1258.71	6.52212
1257.72	6.51031
1256.73	6.33225
1255.75	6.55215
1254.76	6.56258
1253.77	6.39443
1252.79	6.59878
1251.8	6.57473
1250.81	6.57358
1249.83	6.26801
1248.84	6.29004
1247.85	6.70322
1246.86	6.29485
1245.88	6.32461
1244.89	6.59114
1243.9	6.50913
1242.91	6.5528
1241.92	6.30737
1240.93	6.36939
1239.95	6.40998
1238.96	6.5226
1237.97	6.7528
1236.98	6.6901
1235.99	6.58611
1235	6.49009
1234.01	6.33929
1233.02	6.51403
1232.03	6.45554
1231.04	6.45723
1230.06	6.60582
1229.07	6.63303
1228.08	6.42462
1227.09	6.39921
1226.09	6.51166
1225.11	6.70405
1224.11	6.41271
1223.12	6.67854
1222.13	6.56974
1221.14	6.62705
1220.15	6.31046
1219.16	6.60099
1218.17	6.70271
1217.18	6.6174
1216.19	6.53243
1215.2	6.70323
1214.21	6.89605
1213.21	6.90865
1212.22	6.49077
1211.23	6.53535
1210.24	6.84563
1209.25	6.61898
1208.25	6.33999
1207.26	6.79608
1206.27	6.66555
1205.28	6.7957
1204.28	6.7607
1203.29	6.75578
1202.3	6.66842
1201.3	6.65309
1200.31	6.61486
1199.32	6.55398
1198.32	6.57973
1197.33	6.65498
1196.34	6.57416
1195.34	6.61978
1194.35	6.69428
1193.36	6.85806
1192.36	6.58155
1191.37	6.71492
1190.37	6.6698
1189.38	6.63078
1188.38	6.67625
1187.39	6.45641
1186.4	6.74693
1185.4	6.77839
1184.4	6.83494
1183.41	6.96209
1182.42	6.65928
1181.42	6.80175
1180.42	6.64174
1179.43	7.08028
1178.43	6.44447
1177.44	6.91205
1176.44	6.70551
1175.45	6.93822
1174.45	6.62503
1173.45	6.90853
1172.45	6.85659
1171.46	6.80051
1170.46	6.7662
1169.47	6.89809
1168.47	6.69921
1167.47	6.86979
1166.47	6.87091
1165.48	6.79425
1164.48	6.76464
1163.48	6.54486
1162.48	6.56419
1161.49	6.66119
1160.49	6.73517
1159.49	6.92074
1158.49	6.89327
1157.49	6.80367
1156.5	7.09715
1155.5	6.87144
1154.5	6.93254
1153.5	7.0452
1152.5	6.6314
1151.5	6.91691
1150.5	6.86783
1149.5	7.16863
1148.5	6.96773
1147.51	7.14504
1146.51	7.10538
1145.51	6.97125
1144.51	6.54766
1143.51	7.20677
1142.51	6.90787
1141.51	6.81169
1140.51	7.21843
1139.51	7.07927
1138.5	6.98813
1137.5	7.11283
1136.5	6.97412
1135.5	7.21326
1134.5	7.02061
1133.5	7.02377
1132.5	6.7874
1131.5	6.95153
1130.5	7.09102
1129.49	6.98677
1128.49	6.97581
1127.49	7.30538
1126.49	6.9623
1125.49	7.14885
1124.49	6.93187
1123.48	7.21886
1122.48	7.43807
1121.48	7.07846
1120.48	7.05733
1119.47	7.25388
1118.47	7.11729
1117.47	7.19942
1116.46	7.09533
1115.46	7.30321
1114.46	7.3541
1113.45	7.28598
1112.45	7.42105
1111.44	7.38456
1110.44	7.22065
1109.44	7.51825
1108.43	7.35915
1107.43	7.34541
1106.43	7.34056
1105.42	6.97054
1104.42	7.21282
1103.41	7.14139
1102.41	7.09732
1101.4	7.41719
1100.4	7.47682
1099.39	7.3891
1098.39	6.99659
1097.38	7.21287
1096.38	7.29224
1095.37	7.27255
1094.36	7.37965
1093.36	7.41153
1092.35	7.13182
1091.35	7.19126
1090.34	7.14168
1089.33	7.43559
1088.33	7.64966
1087.32	7.39928
1086.31	7.34467
1085.31	7.52513
1084.3	7.46292
1083.29	7.33987
1082.28	7.2183
1081.28	7.57321
1080.27	7.41695
1079.26	7.50262
1078.25	7.53619
1077.25	7.51654
1076.24	7.37506
1075.23	7.44097
1074.22	7.48303
1073.21	7.57884
1072.21	7.43195
1071.2	7.66403
1070.19	7.53191
1069.18	7.59145
1068.17	7.57704
1067.16	7.43396
1066.15	7.68011
1065.14	7.64445
1064.13	7.6829
1063.13	7.56807
1062.12	7.74758
1061.11	7.43112
1060.09	7.5806
1059.08	7.66272
1058.07	7.6473
1057.06	7.61701
1056.05	7.95378
1055.04	7.70053
1054.03	7.76535
1053.02	8.03981
1052.01	7.79935
1051	8.02398
1049.99	8.02731
1048.98	8.06947
1047.97	7.9649
1046.96	7.85643
1045.95	8.17758
1044.93	7.85427
1043.92	7.84732
1042.91	8.16275
1041.9	7.94324
1040.89	7.91695
1039.87	8.11964
1038.86	8.35104
1037.85	8.19047
1036.83	8.34531
1035.82	8.21999
1034.81	8.25506
1033.8	8.3416
1032.78	8.94472
1031.77	8.88788
1030.76	8.80492
1029.74	9.01441
1028.73	9.1975
1027.71	8.80575
1026.7	9.23977
1025.69	9.16047
1024.67	9.60025
1023.66	9.6768
1022.64	9.88199
1021.63	9.93774
1020.62	10.2127
1019.6	9.98262
1018.59	10.1814
1017.57	10.6449
1016.56	10.7618
1015.54	10.8451
1014.53	11.0417
1013.51	11.1137
1012.49	11.1598
1011.48	11.3966
1010.46	11.5511
1009.45	11.5458
1008.43	11.8011
1007.41	11.9028
1006.4	12.3719
1005.38	12.508
1004.36	12.453
1003.35	12.6471
1002.33	12.9369
1001.32	13.0754
1000.3	13.2663
999.281	13.4376
998.264	13.6023
997.245	14.3656
996.228	14.6328
995.211	15.532
994.194	16.198
993.175	17.3019
992.157	17.5732
991.14	18.871
990.12	19.1885
989.102	20.7282
988.085	21.2908
987.065	22.2328
986.046	22.6272
985.028	22.7543
984.008	23.4612
982.99	23.1462
981.971	23.6435
980.95	23.5881
979.932	23.6475
978.911	23.6258
977.892	24.2638
976.872	23.4809
975.851	23.6974
974.832	23.9489
973.812	23.8047
972.791	24.0397
971.771	23.6021
970.751	24.012
969.729	23.6571
968.709	23.5411
967.687	23.8137
966.667	24.1185
965.646	23.7358
964.624	24.1105
963.603	23.9318
962.58	23.8162
961.559	23.5911
960.538	23.0851
959.515	23.6714
958.494	23.6656
957.471	23.5958
956.449	23.3851
955.426	23.6449
954.404	23.4272
953.382	23.3612
952.358	23.1709
951.336	23.653
950.312	23.2165
949.29	22.9895
948.265	23.767
947.243	23.5224
946.218	23.7969
945.195	23.9315
944.172	23.4753
943.147	23.1605
942.124	23.1103
941.099	23.1191
940.076	22.5136
939.05	22.0427
938.027	20.1034
937.001	19.6257
935.977	18.6952
934.951	17.8721
933.927	17.3455
932.901	15.9219
931.877	15.5344
930.85	14.8502
929.826	13.8496
928.799	13.3214
927.774	12.6338
926.748	12.3495
925.723	11.8948
924.695	11.5324
923.67	11.46
922.643	11.4309
921.617	11.3076
920.59	11.2155
919.564	11.1473
918.536	11.3513
917.51	10.7467
916.482	11.1704
915.456	11.2697
914.428	11.2089
913.399	10.894
912.373	10.6235
911.344	10.3529
910.318	10.7671
909.289	11.0469
908.262	11.1155
907.233	10.7699
906.205	10.8345
905.176	10.7931
904.147	10.8595
903.119	10.9214
902.089	10.8386
901.061	10.6079
900.031	10.4698
899.001	10.6388
897.973	10.941
896.943	10.8574
895.914	10.5591
894.884	11.1454
893.853	11.0499
892.825	10.636
891.794	10.6665
890.765	10.833
889.734	10.4389
888.702	11.23
887.673	10.9156
886.641	10.8359
885.612	10.4612
884.58	10.5265
883.548	10.673
882.518	10.8378
881.486	11.0181
880.454	10.7698
879.424	10.8856
878.391	11.0444
877.359	10.9933
876.328	10.7444
875.295	10.8606
874.262	10.8887
873.231	10.8746
872.198	10.6822
871.165	10.8041
870.134	11.2178
869.1	10.8366
868.067	10.6302
867.035	10.8046
866.001	10.4648
864.967	11.209
863.935	10.9231
862.901	10.87
861.866	10.9146
860.834	10.5638
859.799	10.891
858.765	10.7846
857.732	10.6773
856.697	10.6859
855.662	11.0439
854.627	10.994
853.593	10.8608
852.558	10.9817
851.522	10.6715
850.489	11.0201
849.453	11.0969
848.417	11.0017
847.381	10.9846
846.347	11.0281
845.311	11.2601
844.274	10.6353
843.238	10.9259
842.203	10.7934
841.167	10.9997
840.13	11.202
839.093	11.0277
838.058	11.1859
837.021	11.0189
835.983	11.7448
834.946	11.0941
833.908	11.1354
832.873	11.365
831.835	11.3622
830.797	11.2382
829.759	11.4751
828.723	11.2595
827.684	11.4229
826.646	11.2085
825.608	11.8379
824.569	11.4453
823.532	11.714
822.493	11.1578
821.454	11.6486
820.415	11.8605
819.376	11.5374
818.339	11.2747
817.299	11.6513
816.26	11.4044
815.22	11.6737
814.18	11.9053
813.14	11.9526
812.102	11.538
811.062	11.7124
810.021	11.6572
808.981	11.5321
807.94	11.4135
806.9	11.5225
805.861	11.2034
804.82	11.2768
803.779	11.4832
802.738	11.4554
801.697	11.5178
800.655	11.1404
799.614	11.3036
798.572	11.1927
797.532	11.2363
796.49	11.2187
795.448	11.3582
794.406	11.4804
793.364	11.3405
792.322	10.7508
791.279	11.2814
790.237	10.9246
789.196	11.2449
788.153	11.0608
787.11	11.0821
786.067	11.255
785.024	11.1175
783.981	11.2765
782.937	11.2016
781.894	11.5155
780.85	10.9709
779.806	11.198
778.762	11.1367
777.718	11.0703
776.676	11.1377
775.632	10.9193
774.587	11.3741
773.543	11.3293
772.498	10.9686
771.453	11.3237
770.408	11.4203
769.363	11.2453
768.318	11.3568
767.273	10.9553
766.228	11.4869
765.182	10.9213
764.136	11.0108
763.091	11.0816
762.045	11.1488
760.999	11.0852
759.953	11.284
758.906	11.3692
757.86	11.0936
756.814	11.2719
755.767	11.2519
754.72	11.2512
753.673	11.1901
752.627	11.3218
751.579	11.5701
750.532	10.9898
749.485	11.3074
748.437	11.2946
747.39	11.2374
746.342	11.4388
745.294	11.2162
744.246	11.5036
743.198	11.5681
742.15	11.6787
741.102	11.2052
740.054	11.7583
739.005	11.2647
737.956	11.2955
736.908	11.3255
735.859	11.0898
734.81	11.9811
733.76	11.5641
732.711	11.6512
731.662	11.7963
730.612	11.3403
729.563	11.86
728.513	11.7409
727.461	11.6167
726.411	11.5409
725.361	11.6977
724.311	11.7701
723.26	11.3315
722.21	11.4406
721.159	11.5862
720.108	11.8427
719.058	12.1639
718.007	11.8052
716.955	11.9709
715.904	11.8428
714.851	11.7909
713.799	12.0859
712.748	12.2503
711.696	12.3145
710.644	11.9136
709.592	12.2101
708.54	11.9783
707.488	12.436
706.436	12.4954
705.381	12.355
704.329	12.5921
703.276	12.3071
702.223	12.2431
701.17	12.1893
700.117	12.3737
699.064	12.2011
698.009	12.929
696.955	12.7823
695.902	13.2072
694.848	12.4354
693.794	12.868
692.74	12.8899
691.686	13.22
690.63	13.4219
689.576	13.316
688.521	13.2256
687.467	13.2431
686.412	13.3765
685.357	13.7675
684.301	13.6109
683.245	13.7486
682.19	14.0201
681.135	13.8901
680.08	14.0524
679.022	14.3681
677.967	14.2063
676.911	14.6863
675.855	13.996
674.799	14.4719
673.741	14.5032
672.684	15.138
671.628	14.6323
670.572	14.8188
669.513	14.6284
668.456	14.8876
667.399	14.3544
666.342	14.9946
665.285	14.8221
664.226	14.6598
663.169	14.9089
662.111	15.0945
661.053	14.6802
659.994	14.9831
658.936	15.1286
657.878	15.064
656.82	14.7265
655.76	15.158
654.701	15.1359
653.643	15.5402
652.584	15.0297
651.523	15.4786
650.465	15.123
649.406	15.6347
648.344	15.4419
647.285	15.879
646.226	16.0974
645.166	16.0476
644.105	16.1408
643.045	16.3491
641.985	15.9059
640.923	16.7455
639.863	16.4984
638.803	16.3025
637.743	16.2205
636.68	16.0074
635.62	16.3594
634.559	16.6126
633.496	16.2268
632.435	16.4079
631.374	16.7306
630.311	16.5644
629.25	16.3779
628.188	17.2822
627.124	17.1996
626.063	18.0132
625.001	17.975
623.937	18.4607
622.875	19.1006
621.813	19.3387
620.748	19.5516
619.686	20.1217
618.623	20.4664
617.559	20.9722
616.496	20.487
615.431	19.9234
614.368	19.1543
613.305	18.1478
612.239	17.5734
611.176	16.6803
610.112	16.6142
609.047	16.3467
607.983	16.237
606.917	16.2026
605.853	15.9518
604.789	16.1526
603.722	16.143
602.658	16.1534
601.591	16.3486
600.526	15.9263
599.462	16.2703
598.395	16.2851
597.33	17.0015
596.262	17.1288
595.197	15.9791
594.132	17.3376
593.064	16.9351
591.998	17.2193
590.931	17.3632
589.865	17.7029
588.797	17.4736
587.73	18.067
586.664	18.5807
585.596	18.3516
584.529	18.4231
583.46	18.2532
582.394	18.8008
581.325	19.3761
580.258	19.2195
579.188	19.8494
578.121	19.7232
577.054	19.805
575.984	20.6104
574.916	20.5607
573.847	20.7485
572.779	21.2666
571.708	21.5314
570.64	21.9841
569.57	21.9658
568.502	22.4328
567.431	22.6332
566.362	23.0477
565.291	23.8827
564.222	24.381
563.151	24.3078
562.082	25.3704
561.011	24.8758
559.941	26.5122
558.87	27.107
557.8	26.8376
556.728	27.9785
555.658	28.9305
554.586	28.9329
553.516	29.9588
552.444	31.2376
551.373	31.8799
550.301	32.6143
549.228	34.1508
548.157	34.5175
547.084	35.9827
546.013	37.3626
544.94	39.6347
543.868	40.8029
542.795	41.9978
541.723	44.8465
540.65	46.4143
539.578	47.8495
538.504	51.4997
537.43	54.1411
536.358	57.6549
535.283	61.3316
534.211	66.7098
533.136	71.8076
532.063	77.5635
530.988	85.301
529.914	93.6629
528.84	104.4
527.765	116.062
526.692	132.772
525.616	153.6
524.541	180.241
523.467	205.426
522.391	234.558
521.317	254.121
520.241	262.454
519.165	253.058
518.09	227.614
517.014	196.779
515.939	162.552
514.862	133.526
513.786	105.66
512.711	84.8998
511.633	68.2751
510.556	56.3466
509.481	45.9186
508.403	38.2869
507.326	32.8387
506.25	27.6278
505.172	24.1914
504.096	21.1101
503.018	18.7382
501.939	16.5448
500.863	15.447
499.784	13.4529
498.706	13.0665
497.629	11.7212
496.55	11.3749
495.471	10.5843
494.394	10.0722
493.315	10.0428
492.235	9.69374
491.158	9.08336
490.078	8.82852
488.998	8.8706
487.918	8.81609
486.84	8.49271
485.76	8.5555
484.68	8.16444
483.601	8.25357
482.521	7.81201
481.44	7.61714
480.361	7.72416
479.28	8.13033
478.199	7.73585
477.118	7.53803
476.038	7.47272
474.957	7.71239
473.875	7.76581
472.796	7.55391
471.714	7.74596
470.632	7.48293
469.55	7.45851
468.47	7.62372
467.387	7.34505
466.305	7.52116
465.222	7.53797
464.141	7.24144
463.058	7.49201
461.975	7.34878
460.892	7.33641
459.811	7.31645
458.728	7.49444
457.644	7.83807
456.56	7.98795
455.479	7.87626
454.395	8.06582
453.311	8.26401
452.227	8.25926
451.142	8.28814
450.06	8.62071
448.975	8.76107
447.891	8.72334
446.806	8.71328
445.721	9.40079
444.638	9.00276
443.553	9.37955
442.467	9.73223
441.382	9.70969
440.296	9.78715
439.213	10.3884
438.127	10.3836
437.041	10.5925
435.955	10.6004
434.869	10.8909
433.784	11.2294
432.698	10.7006
431.611	10.9159
430.525	11.3286
429.438	10.6872
428.351	11.3161
427.266	11.0963
426.178	10.8709
425.091	10.8783
424.004	10.7795
422.916	11.019
421.828	10.9331
420.74	11.2039
419.654	10.9259
418.566	11.2455
417.478	10.8575
416.389	11.3081
415.301	11.4307
414.212	11.4636
413.124	11.5912
412.035	11.7128
410.948	11.564
409.858	11.2963
408.769	11.7623
407.68	11.8736
406.59	11.8364
405.5	11.6185
404.411	11.8861
403.321	11.9714
402.231	12.3524
401.142	11.9218
400.052	11.797
398.962	12.1257
397.871	11.9327
396.78	12.374
395.689	12.4147
394.598	12.3946
393.507	12.9888
392.416	12.0045
391.325	12.8748
390.233	12.833
389.142	12.5158
388.052	12.6533
386.96	12.5252
385.868	12.609
384.776	12.6669
383.683	13.3322
382.591	12.6811
381.499	13.3986
380.406	12.9856
379.313	13.133
378.22	13.1638
377.127	13.1912
376.034	13.248
374.941	13.2494
373.847	13.9314
372.754	13.6713
371.66	14.1278
370.566	13.6003
369.472	13.6613
368.378	13.9865
367.284	13.909
366.189	13.877
365.095	13.7884
364	14.3888
362.905	14.2415
361.811	14.4768
360.716	14.2344
359.62	14.7012
358.525	14.6756
357.43	14.7439
356.334	14.6401
355.239	15.2316
354.143	14.8079
353.047	15.2186
351.951	15.1035
350.855	14.9276
349.758	15.1855
348.662	15.4313
347.565	15.3023
346.469	14.9934
345.372	15.297
344.275	15.1992
343.178	15.982
342.08	15.541
340.983	15.599
339.886	15.5771
338.788	15.6328
337.69	16.2263
336.592	16.5245
335.494	16.9432
334.394	16.6237
333.296	16.1361
332.197	17.0824
331.099	16.6218
330	16.9482
328.901	16.7127
327.803	16.883
326.703	17.1311
325.604	17.3053
324.505	17.5011
323.406	17.8219
322.306	17.8305
321.204	17.936
320.104	18.1055
319.004	18.247
317.904	18.2759
316.804	18.5919
315.704	18.6438
314.603	19.0745
313.503	18.8731
312.402	19.7955
311.299	19.4825
310.198	19.8034
309.097	19.4905
307.995	21.0511
306.894	21.2403
305.792	21.4251
304.691	22.268
303.589	22.7575
302.485	23.0302
301.383	22.6785
300.281	22.0892
299.178	21.7972
298.076	21.0586
296.973	20.6423
295.871	20.1382
294.766	20.3921
293.663	19.8577
292.559	20.0374
291.456	20.3061
290.353	19.6314
289.249	19.8185
288.144	19.9743
287.04	19.6735
285.936	19.7444
284.832	19.3386
283.728	19.5949
282.621	19.183
281.517	19.5336
280.412	19.0495
279.308	19.1558
278.203	18.6476
277.098	19.6034
275.991	18.8479
274.885	19.0776
273.78	18.6493
272.674	19.0754
271.567	18.6821
270.461	18.9543
269.355	18.9529
268.249	19.4123
267.143	18.6704
266.035	19.1567
264.928	18.8447
263.822	18.8543
262.715	18.8025
261.606	18.2701
260.499	18.852
259.392	18.9647
258.285	18.4909
257.175	18.9363
256.068	19.0889
254.96	19.0119
253.852	18.8339
252.742	19.2136
251.634	18.6706
250.526	19.2441
249.418	19.1628
248.308	19.011
247.199	18.9805
246.09	18.7158
244.982	18.5364
243.87	18.418
242.761	19.0183
241.652	19.0368
240.541	18.5669
239.431	18.7211
238.322	18.7498
237.212	18.9627
236.1	18.8914
234.99	19.5215
233.88	19.2319
232.768	19.4449
231.657	18.8672
230.547	19.0783
229.436	19.1548
228.323	19.0595
227.212	18.6632
226.101	19.0277
224.988	18.4632
223.876	18.1838
222.765	18.3104
221.651	18.876
220.54	17.3445
219.428	18.0176
218.314	17.9009
217.201	17.4596
216.089	18.1095
214.975	18.2546
213.862	17.9621
212.75	18.1134
211.635	17.9776
210.522	17.7868
209.407	17.3246
208.293	17.4467
207.18	17.8282
206.064	17.4481
204.951	17.4076
203.837	17.1213
202.721	17.7862
201.607	17.8223
200.493	17.5198
199.377	17.5359
198.262	17.6185
197.146	18.1215
196.031	17.9377
194.916	18.219
193.799	17.5761
192.684	18.1918
191.567	17.8914
190.451	17.9609
189.336	17.7931
188.218	18.2293
187.103	18.0891
185.985	17.6973
184.869	17.9257
183.752	17.9577
182.634	18.4353
181.518	18.2759
180.399	17.9642
179.282	18.5996
178.165	18.1805
177.046	18.01
175.929	18.3886
174.81	18.5079
173.693	18.0394
172.573	17.858
171.455	18.6541
170.336	18.8314
169.218	18.9702
168.1	18.4171
166.979	18.3202
165.861	18.6901
164.741	18.68
163.622	18.604
162.501	18.6847
161.382	18.7149
160.261	18.8405
159.142	18.6404
158.021	18.7561
156.902	18.7037
155.78	19.1845
154.66	18.9532
153.539	18.9973
152.419	19.6891
151.299	19.3743
150.176	18.9069
149.056	18.6129
147.933	19.3457
146.813	19.144
145.69	19.2324
144.569	19.0427
143.446	19.616
142.325	19.0764
141.202	19.5101
140.08	19.4932
138.957	19.6666
137.833	19.3878
136.711	19.2691
135.587	19.2876
134.465	18.9022
133.341	19.5314
132.218	19.5492
131.094	19.428
129.971	19.7102
128.846	19.5264
127.723	19.9234
126.598	19.5042
125.475	19.3046
124.35	20.061
123.226	19.9439
122.101	19.6922
120.975	19.9675
119.851	20.171
118.725	19.7737
117.601	19.9701
116.475	20.0252
115.35	19.8736
114.224	19.7799
113.097	19.9297
111.972	19.472
110.845	19.6627
109.72	19.6129
108.593	20.0279
107.467	20.7031
106.34	19.3433
105.212	19.5226
104.086	19.9369
102.958	19.6583
101.832	19.7899
100.704	19.6041
99.5758	19.5234
98.4494	19.2921
97.3208	19.9565
96.1941	20.0144
95.0652	19.5773
93.9361	19.925
92.8091	19.8958
91.6797	20.5938
90.5524	20.7469
89.4228	20.7384
88.293	20.7501
87.1653	20.4433
86.0352	20.7494
84.9051	20.8096
83.7769	20.9417
82.6465	20.9855
81.5159	20.9042
80.3874	20.5602
79.2565	21.2087
78.1277	21.0196
76.9966	20.815
75.8653	20.4003
74.7361	20.7586
73.6046	20.3704
72.4729	20.4376
71.3432	20.4968
70.2113	21.6457
69.0792	21.6113
67.9492	22.5755
66.8168	23.1762
65.6843	24.0553
64.5539	23.6886
63.4211	24.7431
62.2882	24.6024
61.1573	24.3919
60.0242	24.0296
58.8909	23.2313
57.7574	22.0222
56.626	20.8167
55.4923	19.6002
54.3584	18.4142
53.2266	17.7375
52.0924	16.6409
50.9582	16.2461
49.8259	14.9079
48.6914	14.1611
47.5567	13.4265
46.4219	12.7928
45.2891	13.1857
44.154	13.3584
43.0188	14.0608
41.8856	15.4728
40.7501	15.7381
39.6144	17.6158
38.4787	19.9924
37.3449	21.6692
36.2089	23.565
35.0727	25.7977
33.9363	27.7152];